# h141.osc
# this is a preliminary data set done without modulator; there are
#	some `holes' where phaselock is bad
# tested 13nov97 with pac mm products detector #50
# 06jan99 rp - all loop gains increased by 0.5
# $Id: h141.tab,v 1.1 2005/04/07 22:14:59 colby Exp $
#| lo  | osctarg | oscbcktarg | vop | lgain | mW | Vop | mmerr |
#| r      | i    | i    | r   | r    | r         | r    | r |
  93.000  32354  28065   9.50   5.40    0.02138    9.53  -0.36
  92.900  32336  27953   9.50   5.40    0.02523    9.51  -0.16
  92.800  32325  27846   9.50   5.40    0.02961    9.51  -0.07
  92.700  32311  27749   9.50   5.40    0.03438    9.49   0.11
  92.600  32298  27641   9.50   5.40    0.03452    9.50  -0.02
  92.500  32290  27538   9.50   5.40    0.02989    9.51  -0.16
  92.400  32277  27461   9.50   5.40    0.02599    9.49   0.12
  92.300  32267  27379   9.50   5.40    0.02374    9.49   0.12
  92.200  32245  27309   9.50   5.40    0.02274    9.50  -0.03
  92.100  32227  27221   9.50   5.40    0.02478    9.52  -0.22
  92.000  32213  27145   9.50   5.40    0.03064    9.48   0.17
  91.900  32193  27098   9.50   5.40    0.03908    9.48   0.16
  91.800  32176  27041   9.50   5.40    0.04594    9.49   0.05
  91.700  32162  26992   9.50   5.40    0.04694    9.50  -0.02
  91.600  32149  26940   9.50   5.40    0.03899    9.52  -0.17
  91.500  32141  26880   9.50   5.40    0.03225    9.50   0.00
  91.400  32121  26803   9.50   5.40    0.03094    9.51  -0.11
  91.300  32106  26720   9.50   5.40    0.03172    9.50  -0.01
  91.200  32087  26644   9.50   5.40    0.03362    9.49   0.11
  91.100  32069  26565   9.50   5.40    0.03944    9.49   0.08
  91.000  32048  26489   9.50   5.40    0.04778    9.48   0.18
  90.900  32030  26435   9.50   5.40    0.05178    9.50  -0.08
  90.800  32018  26382   9.50   5.40    0.05114    9.50  -0.05
  90.700  32008  26326   9.50   5.40    0.04729    9.48   0.21
  90.600  31992  26278   9.50   5.40    0.04109    9.51  -0.13
  90.500  31977  26221   9.50   5.40    0.03886    9.50  -0.02
  90.400  31962  26170   9.50   5.40    0.04145    9.49   0.06
  90.300  31942  26122   9.50   5.40    0.04381    9.48   0.12
  90.200  31927  26072   9.50   5.40    0.04633    9.50   0.00
  90.100  31906  26014   9.50   5.40    0.05245    9.50  -0.07
  90.000  31883  25965   9.50   5.40    0.05576    9.51  -0.17
  89.900  31875  25856   9.50   5.40    0.05376    9.49   0.10
  89.800  31849  25751   9.50   5.40    0.05389    9.47   0.23
  89.700  31838  25658   9.50   5.40    0.05316    9.52  -0.20
  89.600  31827  25549   9.50   5.40    0.04893    9.50  -0.02
  89.500  31813  25450   9.50   5.40    0.04973    9.49   0.07
  89.400  31785  25358   9.50   5.40    0.05512    9.51  -0.14
  89.300  31772  25288   9.50   5.40    0.05479    9.49   0.07
  89.200  31756  25207   9.50   5.40    0.05325    9.50  -0.05
  89.100  31728  25119   9.50   5.40    0.05564    9.50  -0.07
  89.000  31716  25052   9.50   5.40    0.05582    9.49   0.08
  88.900  31702  24917   9.50   5.40    0.05532    9.48   0.13
  88.800  31671  24781   9.50   5.40    0.06014    9.48   0.17
  88.700  31650  24654   9.50   5.40    0.06326    9.50  -0.05
  88.600  31642  24518   9.50   5.40    0.05860    9.48   0.16
  88.500  31625  24395   9.50   5.40    0.05679    9.48   0.19
  88.400  31601  24312   9.50   5.40    0.05640    9.50  -0.05
  88.300  31585  24233   9.50   5.40    0.05188    9.50  -0.03
  88.200  31565  24156   9.50   5.40    0.05110    9.49   0.08
  88.100  31537  24074   9.50   5.40    0.05753    9.48   0.14
  88.000  31508  23998   9.50   5.40    0.06420    9.49   0.08
  87.900  31490  23815   9.50   5.40    0.06765    9.48   0.10
  87.800  31459  23626   9.50   5.40    0.06932    9.48   0.18
# 87.700  31476  24822  9.50  4.90   0.04536     9.69  -1.85  23434
# 87.700  osc unlocked
  87.600  31451  23259   9.50   5.40    0.05733    9.49   0.10
  87.500  31435  23080   9.50   5.40    0.05619    9.48   0.21
  87.400  31407  22950   9.50   5.40    0.05648    9.49   0.04
  87.300  31380  22819   9.50   5.40    0.05598    9.50  -0.04
  87.200  31351  22689   9.50   5.40    0.06043    9.49   0.07
  87.100  31315  22551   9.50   5.40    0.06978    9.50  -0.01
  87.000  31302  22426   9.50   5.40    0.07407    9.47   0.21
  86.900  31286  22272   9.50   5.40    0.07229    9.47   0.20
  86.800  31271  22113   9.50   5.40    0.06656    9.48   0.10
  86.700  31257  21948   9.50   5.40    0.05935    9.50  -0.00
  86.600  31242  21794   9.50   5.40    0.05635    9.49   0.08
  86.500  31211  21637   9.50   5.40    0.05901    9.50  -0.01
  86.400  31185  21531   9.50   5.40    0.06278    9.50  -0.05
  86.300  31155  21427   9.50   5.40    0.06768    9.50  -0.07
  86.200  31120  21321   9.50   5.40    0.07465    9.48   0.15
  86.100  31097  21216   9.50   5.40    0.07564    9.50  -0.03
  86.000  31091  21112   9.50   5.40    0.07062    9.48   0.15
  85.900  31068  20822   9.50   5.40    0.06932    9.50  -0.04
  85.800  31054  20537   9.50   5.40    0.06709    9.48   0.19
  85.700  31030  20243   9.50   5.40    0.06503    9.49   0.09
  85.600  31001  19960   9.50   5.40    0.06763    9.48   0.19
  85.500  30965  19669   9.50   5.40    0.07364    9.47   0.22
  85.400  30940  30554   9.50   5.40    0.07603    9.49  -0.00
  85.300  30913  30423   9.50   5.40    0.07600    9.50  -0.04
  85.200  30888  30299   9.50   5.40    0.07846    9.48   0.18
  85.100  30867  30160   9.50   5.40    0.07751    9.48   0.13
  85.000  30847  30026   9.50   5.40    0.07480    9.49   0.06
  84.900  30822  29924   9.50   5.40    0.07599    9.50  -0.06
  84.800  30802  29823   9.50   5.40    0.07613    9.50  -0.01
  84.700  30777  29717   9.50   5.40    0.07501    9.49   0.01
  84.600  30746  29615   9.50   5.40    0.07862    9.50  -0.05
  84.500  30714  29507   9.50   5.40    0.08166    9.49   0.01
  84.400  30698  29403   9.50   5.40    0.07874    9.49   0.06
  84.300  30675  29293   9.50   5.40    0.07734    9.47   0.24
  84.200  30645  29182   9.50   5.40    0.07865    9.48   0.12
  84.100  30623  29090   9.50   5.40    0.07843    9.48   0.16
  84.000  30592  28981   9.50   5.40    0.07970    9.48   0.09
  83.900  30566  28850   9.50   5.40    0.08256    9.47   0.23
  83.800  30537  28720   9.50   5.40    0.08340    9.50  -0.02
  83.700  30517  28591   9.50   5.40    0.08273    9.49   0.01
  83.600  30495  28457   9.50   5.40    0.08228    9.48   0.17
  83.500  30470  28327   9.50   5.40    0.08094    9.48   0.14
  83.400  30451  28197   9.50   5.40    0.07891    9.49   0.03
  83.300  30419  28061   9.50   5.40    0.07973    9.47   0.23
  83.200  30380  27930   9.50   5.40    0.08289    9.47   0.26
  83.100  30339  27796   9.50   5.40    0.08562    9.47   0.24
  83.000  30306  27670   9.50   5.40    0.08751    9.47   0.28
  82.900  30284  27565   9.50   5.40    0.08661    9.47   0.27
# 82.800  osc unlocked
  82.700  30254  27356   9.50   5.40    0.07838    9.48   0.20
  82.600  30231  27245   9.50   5.40    0.07621    9.49   0.05
  82.500  30201  27148   9.50   5.40    0.07589    9.49   0.06
  82.400  30159  27094   9.50   5.40    0.07840    9.48   0.16
  82.300  30114  27040   9.50   5.40    0.08319    9.48   0.18
  82.200  30063  26983   9.50   5.40    0.08658    9.49   0.02
  82.100  30027  26935   9.50   5.40    0.08513    9.49  -0.02
# 82.000  osc unlocked
  81.900  30015  26755   9.50   5.40    0.07590    9.49   0.08
  81.800  29995  26617   9.50   5.40    0.07562    9.48   0.20
  81.700  29965  26491   9.50   5.40    0.07491    9.47   0.24
  81.600  29925  26359   9.50   5.40    0.07435    9.49   0.06
  81.500  29874  26229   9.50   5.40    0.07511    9.47   0.26
  81.400  29810  26151   9.50   5.40    0.07978    9.48   0.16
  81.300  29767  26067   9.50   5.40    0.08182    9.48   0.17
# 81.200  osc unlocked
# 81.100  osc unlocked
  81.000  29748  25835   9.50   5.40    0.07324    9.48   0.13
  80.900  29718  25699   9.50   5.40    0.07396    9.47   0.25
  80.800  29666  25573   9.50   5.40    0.07741    9.47   0.25
  80.700  29606  25435   9.50   5.40    0.08080    9.49   0.09
  80.600  29555  25312   9.50   5.40    0.08230    9.49   0.07
  80.500  29512  25177   9.50   5.40    0.08344    9.47   0.24
  80.400  29456  25124   9.50   5.40    0.08550    9.47   0.20
# 80.300  osc unlocked
  80.200  29448  25021   9.50   5.40    0.07895    9.47   0.25
  80.100  29434  24969   9.50   5.40    0.07846    9.48   0.17
  80.000  29403  24910   9.50   5.40    0.07818    9.48   0.14
  79.900  29353  24783   9.50   5.40    0.07917    9.47   0.26
  79.800  29297  24649   9.50   5.40    0.08230    9.49   0.08
  79.700  29226  24519   9.50   5.40    0.08438    9.47   0.23
  79.600  29164  24388   9.50   5.40    0.08595    9.48   0.10
  79.500  29129  24264   9.50   5.40    0.08549    9.47   0.23
  79.400  29113  23778   9.50   5.40    0.08381    9.46   0.35
  79.300  29111  23291   9.50   5.40    0.07514    9.40   0.97
  79.200  29098  23946   9.50   5.40    0.07830    9.48   0.10
  79.100  29059  23840   9.50   5.40    0.08161    9.48   0.16
  79.000  29002  23729   9.50   5.40    0.08452    9.48   0.16
  78.900  28958  23632   9.50   5.40    0.08442    9.46   0.28
  78.800  28895  23525   9.50   5.40    0.08449    9.48   0.14
  78.700  28821  23420   9.50   5.40    0.08528    9.47   0.19
# 78.600  osc unlocked
  78.500  28776  23208   9.50   5.40    0.08397    9.47   0.26
# 78.400  osc unlocked
  78.300  28735  23002   9.50   5.40    0.08084    9.49   0.09
  78.200  28684  22896   9.50   5.40    0.08226    9.47   0.27
  78.100  28606  22794   9.50   5.40    0.08815    9.47   0.27
  78.000  28533  22687   9.50   5.40    0.09183    9.48   0.08
  77.900  28484  22551   9.50   5.40    0.09309    9.48   0.11
  77.800  28428  22423   9.50   5.40    0.09539    9.48   0.14
# 77.700  osc unlocked
  77.600  28375  22158   9.50   5.40    0.09171    9.48   0.14
  77.500  28320  22031   9.50   5.40    0.09568    9.48   0.15
  77.400  28262  21902   9.50   5.40    0.09655    9.49   0.06
  77.300  28230  21766   9.50   5.40    0.09244    9.48   0.12
  77.200  28178  21637   9.50   5.40    0.09449    9.47   0.17
  77.100  28104  21503   9.50   5.40    0.09740    9.47   0.19
  77.000  28057  21372   9.50   5.40    0.09703    9.48   0.12
  76.900  27993  21186   9.50   5.40    0.09610    9.47   0.20
  76.800  27914  21003   9.50   5.40    0.09924    9.48   0.12
  76.700  27878  20822   9.50   5.40    0.09514    9.47   0.21
  76.600  27849  20638   9.50   5.40    0.09698    9.47   0.26
  76.500  27776  20451   9.50   5.40    0.09858    9.48   0.11
  76.400  27730  20297   9.50   5.40    0.09817    9.47   0.18
  76.300  27676  20139   9.50   5.40    0.09674    9.48   0.16
  76.200  27605  19979   9.50   5.40    0.09705    9.48   0.15
  76.100  27540  19827   9.50   5.40    0.09726    9.47   0.17
  76.000  27477  19670   9.50   5.40    0.09501    9.47   0.21
  75.900  27396  19565   9.50   5.40    0.09708    9.47   0.19
  75.800  27321  19455   9.50   5.40    0.09870    9.47   0.23
  75.700  27294  19355   9.50   5.40    0.09719    9.47   0.24
  75.600  27253  19250   9.50   5.40    0.09499    9.47   0.26
  75.500  27219  19140   9.50   5.40    0.09161    9.47   0.18
  75.400  27154  18958   9.50   5.40    0.09270    9.47   0.25
  75.300  27061  18781   9.50   5.40    0.09638    9.47   0.17
  75.200  26966  18596   9.50   5.40    0.09828    9.46   0.28
  75.100  26886  18412   9.50   5.40    0.09993    9.47   0.21
  75.000  26814  18224   9.50   5.40    0.10111    9.48   0.14
# 74.900  osc unlocked
  74.800  26730  17963   9.50   5.40    0.09810    9.47   0.22
  74.700  26654  17832   9.50   5.40    0.09891    9.47   0.25
  74.600  26604  17700   9.50   5.40    0.09591    9.46   0.29
  74.500  26536  17569   9.50   5.40    0.09386    9.47   0.21
  74.400  26449  17461   9.50   5.40    0.09521    9.48   0.12
  74.300  26383  17356   9.50   5.40    0.09608    9.46   0.27
  74.200  26302  17256   9.50   5.40    0.09770    9.47   0.17
  74.100  26217  17151   9.50   5.40    0.09892    9.46   0.26
# 74.000  osc unlocked
  73.900  26132  16916   9.50   5.40    0.09015    9.47   0.24
  73.800  26067  16782   9.50   5.40    0.08611    9.46   0.27
  73.700  26008  16649   9.50   5.40    0.08210    9.47   0.21
  73.600  25907  16520   9.50   5.40    0.08309    9.48   0.14
  73.500  25791  16389   9.50   5.40    0.08771    9.47   0.23
  73.400  25716  16281   9.50   5.40    0.08793    9.47   0.20
  73.300  25650  16182   9.50   5.40    0.08531    9.47   0.20
  73.200  25574  16076   9.50   5.40    0.08286    9.47   0.15
  73.100  25518  15967   9.50   5.40    0.07614    9.47   0.15
  73.000  25439  15862   9.50   5.40    0.07478    9.47   0.24
  72.900  25358  15807   9.50   5.38    0.07171    9.46   0.27
  72.800  25296  15761   9.50   5.36    0.06429    9.47   0.23
  72.700  25173  15704   9.50   5.34    0.06436    9.46   0.25
  72.600  25040  15655   9.50   5.32    0.06982    9.47   0.21
  72.500  24968  15600   9.50   5.30    0.06885    9.46   0.24
  72.400  24903  15497   9.50   5.29    0.06605    9.48   0.13
  72.300  24834  15391   9.50   5.28    0.05971    9.46   0.25
  72.200  24752  15293   9.50   5.27    0.05449    9.47   0.14
  72.100  24633  15185   9.50   5.26    0.05448    9.47   0.23
  72.000  24513  15076   9.50   5.25    0.05531    9.48   0.11
  71.900  24440  15185   9.50   5.24    0.05168    9.47   0.14
  71.800  24348  15285   9.50   5.23    0.04919    9.48   0.13
  71.700  24254  15392   9.50   5.22    0.04659    9.46   0.24
  71.600  24145  15494   9.50   5.21    0.04468    9.47   0.13
  71.500  24036  15603   9.50   5.20    0.04501    9.46   0.24
  71.400  23976  15997   9.50   5.19    0.04081    9.47   0.17
  71.300  23899  16387   9.50   5.18    0.03548    9.47   0.18
  71.200  23811  16776   9.50   5.17    0.03044    9.47   0.20
  71.100  23714  17174   9.50   5.16    0.02471    9.47   0.22
  71.000  23588  17569   9.50   5.15    0.02522    9.47   0.20
  70.900  23467  18481   9.50   5.14    0.02634    9.47   0.18
  70.800  23366  19392   9.50   5.13    0.02594    9.47   0.14
#  70.700  23270  20327   9.50   5.12    0.02532    9.50  -0.11
#  70.600  23189  21240   9.50   5.11    0.02375    9.48   0.06
  70.600  23189  19040   9.50   5.11    0.02375    9.48   0.06
  70.500  23133  22163   9.50   5.10    0.01833    9.47   0.20
  70.400  23039  22444   9.50   5.10    0.01639    9.48   0.06
  70.300  22939  22738   9.50   5.10    0.01279    9.49   0.01
  70.200  22859  23029   9.50   5.10    0.01044    9.49   0.01
  70.100  22757  23318   9.50   5.10    0.00908    9.48   0.08
  70.000  22657  23608   9.50   5.10    0.00894    9.49   0.01
  69.900  22562  23700   9.50   5.10    0.00802    9.50  -0.16
  69.800  22484  23807   9.50   5.10    0.00733    9.50  -0.12
  69.700  22413  23918   9.50   5.10    0.00616    9.52  -0.32
  69.600  22340  24029   9.50   5.10    0.00434    9.51  -0.21
  69.500  22260  24129   9.50   5.10    0.00285    9.50  -0.15
  69.400  22175  24100   9.46   5.10    0.00181    9.48  -0.34
  69.300  22094  24081   9.42   5.10    0.00099    9.43  -0.18
  69.200  22003  24056   9.38   5.10    0.00047    9.43  -0.61
  69.100  21931  24021   9.34   5.10    0.00022    9.38  -0.49
  69.000  21851  23999   9.30   5.10    0.00004    9.37  -0.80
  68.900  21770  23967   9.34   5.10    0.00000    9.44  -1.09
  68.800  21682  23944   9.38   5.10    0.00007    9.50  -1.27
  68.700  21606  23928   9.42   5.10    0.00020    9.41   0.06
  68.600  21518  23886   9.46   5.10    0.00040    9.44   0.11
  68.500  21442  23870   9.50   5.10    0.00067    9.52  -0.29
  68.400  21360  23811   9.50   5.10    0.00067    9.51  -0.20
  68.300  21278  23762   9.50   5.10    0.00075    9.50  -0.05
  68.200  21200  23703   9.50   5.10    0.00078    9.49   0.06
  68.100  21121  23655   9.50   5.10    0.00080    9.48   0.13
  68.000  21045  23608   9.50   5.10    0.00099    9.48   0.06
  67.900  20968  23550   9.50   5.10    0.00106    9.48   0.14
  67.800  20887  23500   9.50   5.10    0.00120    9.49   0.02
  67.700  20807  23443   9.50   5.10    0.00159    9.47   0.19
  67.600  20731  23385   9.50   5.10    0.00131    9.47   0.22
  67.500  20652  23340   9.50   5.10    0.00115    9.47   0.25
  67.400  20576  23262   9.50   5.10    0.00108    9.48   0.13
  67.300  20497  23182   9.50   5.10    0.00094    9.46   0.28
  67.200  20423  23105   9.50   5.10    0.00094    9.48   0.16
  67.100  20354  23032   9.50   5.10    0.00087    9.46   0.27
  67.000  20279  22947   9.50   5.10    0.00079    9.47   0.23
#  87.700  31476  24822  9.50  4.90   0.04536     9.69  -1.85  23434
